[Info]
Number of Regions=0002
Version=1.3.1

[Region 1]
Region Name=Ti 2p 4k
Dimension 1 name=Binding Energy [eV]
Dimension 1 size=301
Dimension 1 scale=485.00000 484.90000 484.80000 484.70000 484.60000 484.50000 484.40000 484.30000 484.20000 484.10000 484.00000 483.90000 483.80000 483.70000 483.60000 483.50000 483.40000 483.30000 483.20000 483.10000 483.00000 482.90000 482.80000 482.70000 482.60000 482.50000 482.40000 482.30000 482.20000 482.10000 482.00000 481.90000 481.80000 481.70000 481.60000 481.50000 481.40000 481.30000 481.20000 481.10000 481.00000 480.90000 480.80000 480.70000 480.60000 480.50000 480.40000 480.30000 480.20000 480.10000 480.00000 479.90000 479.80000 479.70000 479.60000 479.50000 479.40000 479.30000 479.20000 479.10000 479.00000 478.90000 478.80000 478.70000 478.60000 478.50000 478.40000 478.30000 478.20000 478.10000 478.00000 477.90000 477.80000 477.70000 477.60000 477.50000 477.40000 477.30000 477.20000 477.10000 477.00000 476.90000 476.80000 476.70000 476.60000 476.50000 476.40000 476.30000 476.20000 476.10000 476.00000 475.90000 475.80000 475.70000 475.60000 475.50000 475.40000 475.30000 475.20000 475.10000 475.00000 474.90000 474.80000 474.70000 474.60000 474.50000 474.40000 474.30000 474.20000 474.10000 474.00000 473.90000 473.80000 473.70000 473.60000 473.50000 473.40000 473.30000 473.20000 473.10000 473.00000 472.90000 472.80000 472.70000 472.60000 472.50000 472.40000 472.30000 472.20000 472.10000 472.00000 471.90000 471.80000 471.70000 471.60000 471.50000 471.40000 471.30000 471.20000 471.10000 471.00000 470.90000 470.80000 470.70000 470.60000 470.50000 470.40000 470.30000 470.20000 470.10000 470.00000 469.90000 469.80000 469.70000 469.60000 469.50000 469.40000 469.30000 469.20000 469.10000 469.00000 468.90000 468.80000 468.70000 468.60000 468.50000 468.40000 468.30000 468.20000 468.10000 468.00000 467.90000 467.80000 467.70000 467.60000 467.50000 467.40000 467.30000 467.20000 467.10000 467.00000 466.90000 466.80000 466.70000 466.60000 466.50000 466.40000 466.30000 466.20000 466.10000 466.00000 465.90000 465.80000 465.70000 465.60000 465.50000 465.40000 465.30000 465.20000 465.10000 465.00000 464.90000 464.80000 464.70000 464.60000 464.50000 464.40000 464.30000 464.20000 464.10000 464.00000 463.90000 463.80000 463.70000 463.60000 463.50000 463.40000 463.30000 463.20000 463.10000 463.00000 462.90000 462.80000 462.70000 462.60000 462.50000 462.40000 462.30000 462.20000 462.10000 462.00000 461.90000 461.80000 461.70000 461.60000 461.50000 461.40000 461.30000 461.20000 461.10000 461.00000 460.90000 460.80000 460.70000 460.60000 460.50000 460.40000 460.30000 460.20000 460.10000 460.00000 459.90000 459.80000 459.70000 459.60000 459.50000 459.40000 459.30000 459.20000 459.10000 459.00000 458.90000 458.80000 458.70000 458.60000 458.50000 458.40000 458.30000 458.20000 458.10000 458.00000 457.90000 457.80000 457.70000 457.60000 457.50000 457.40000 457.30000 457.20000 457.10000 457.00000 456.90000 456.80000 456.70000 456.60000 456.50000 456.40000 456.30000 456.20000 456.10000 456.00000 455.90000 455.80000 455.70000 455.60000 455.50000 455.40000 455.30000 455.20000 455.10000 455.00000
Dimension 2 name=Seq. Iteration[a.u.]
Dimension 2 size=2
Dimension 2 scale=1.00000 2.00000

[Info 1]
Region Name=Ti 2p 4k
Excitation Energy=4000
Energy Scale=Binding
Acquisition Mode=Swept
Center Energy=470
Low Energy=455
High Energy=485
Energy Step=0.1
Step Time=200
Detector First X-Channel=1
Detector Last X-Channel=1064
Detector First Y-Channel=1
Detector Last Y-Channel=1000
Number of Slices=1
Lens Mode=X6_25012013
Pass Energy=200
Number of Sweeps=1
File=D:\Data\BL data\sample3.pxt,.txt
Sequence=D:\Data\BL data\2014\July\Jet.seq
Spectrum Name=Ti 2p 4k
Instrument=HiPPHAXPES-4EH002
Location=931
User=Matthias
Sample=TiO2
Comments=
Date=9/9/2014
Time=1:57:19 PM
Time per Spectrum Channel=34.4

[Run Mode Information 1]
Name=Add Dimension


[Data 1]
 4.85000000000000E+0002  3.77846914765906E+0003  3.80539447779112E+0003
 4.84900000000000E+0002  3.47508955582233E+0003  3.83388523409364E+0003
 4.84800000000000E+0002  3.75279615846339E+0003  3.84546938775510E+0003
 4.84700000000000E+0002  3.99449795918367E+0003  3.45755678271309E+0003
 4.84600000000000E+0002  3.67092436974790E+0003  3.83513757503001E+0003
 4.84500000000000E+0002  3.57903385354142E+0003  3.54271596638655E+0003
 4.84400000000000E+0002  3.47242833133253E+0003  3.54021128451381E+0003
 4.84300000000000E+0002  4.05680192076831E+0003  4.04396542617047E+0003
 4.84200000000000E+0002  3.55852677070828E+0003  3.81854405762305E+0003
 4.84100000000000E+0002  3.88742280912365E+0003  3.58310396158463E+0003
 4.84000000000000E+0002  3.68955294117647E+0003  3.63852004801921E+0003
 4.83900000000000E+0002  4.20504777911164E+0003  3.52862713085234E+0003
 4.83800000000000E+0002  4.17702665066026E+0003  3.65166962785114E+0003
 4.83700000000000E+0002  3.90119855942377E+0003  3.64509483793517E+0003
 4.83600000000000E+0002  4.14759663865546E+0003  3.61519519807923E+0003
 4.83500000000000E+0002  3.93282016806723E+0003  3.99856806722689E+0003
 4.83400000000000E+0002  3.62051764705882E+0003  3.80288979591837E+0003
 4.83300000000000E+0002  3.85407923169268E+0003  3.83576374549820E+0003
 4.83200000000000E+0002  3.90432941176471E+0003  3.70473757503001E+0003
 4.83100000000000E+0002  3.62599663865546E+0003  3.71992220888355E+0003
 4.83000000000000E+0002  3.57230252100840E+0003  3.77345978391357E+0003
 4.82900000000000E+0002  3.93657719087635E+0003  3.76375414165666E+0003
 4.82800000000000E+0002  3.87818679471789E+0003  3.52972292917167E+0003
 4.82700000000000E+0002  4.33560432172869E+0003  3.75717935174070E+0003
 4.82600000000000E+0002  4.28911116446579E+0003  3.42859639855942E+0003
 4.82500000000000E+0002  3.91982713085234E+0003  3.60173253301321E+0003
 4.82400000000000E+0002  3.31729459783914E+0003  3.63147563025210E+0003
 4.82300000000000E+0002  3.90933877551020E+0003  3.74199471788715E+0003
 4.82200000000000E+0002  3.61425594237695E+0003  4.17546122448980E+0003
 4.82100000000000E+0002  3.88163073229292E+0003  3.69878895558223E+0003
 4.82000000000000E+0002  3.82120528211285E+0003  3.84437358943577E+0003
 4.81900000000000E+0002  3.32981800720288E+0003  3.83028475390156E+0003
 4.81800000000000E+0002  3.78504393757503E+0003  4.21256182472989E+0003
 4.81700000000000E+0002  4.10235582232893E+0003  4.04647010804322E+0003
 4.81600000000000E+0002  3.75670972388956E+0003  3.66716734693878E+0003
 4.81500000000000E+0002  4.18735846338535E+0003  3.60705498199280E+0003
 4.81400000000000E+0002  3.74199471788715E+0003  3.97774789915966E+0003
 4.81300000000000E+0002  4.19189819927971E+0003  3.87317743097239E+0003
 4.81200000000000E+0002  4.13585594237695E+0003  3.79819351740696E+0003
 4.81100000000000E+0002  4.06337671068427E+0003  3.93501176470588E+0003
 4.81000000000000E+0002  4.30773973589436E+0003  4.09249363745498E+0003
 4.80900000000000E+0002  4.51907226890756E+0003  4.12959423769508E+0003
 4.80800000000000E+0002  4.22305018007203E+0003  4.06682064825930E+0003
 4.80700000000000E+0002  4.06525522208884E+0003  4.09390252100840E+0003
 4.80600000000000E+0002  3.77706026410564E+0003  4.20645666266507E+0003
 4.80500000000000E+0002  4.57918463385354E+0003  4.35767683073229E+0003
 4.80400000000000E+0002  4.25952460984394E+0003  4.15949387755102E+0003
 4.80300000000000E+0002  4.06306362545018E+0003  4.51641104441777E+0003
 4.80200000000000E+0002  4.06290708283313E+0003  4.36362545018007E+0003
 4.80100000000000E+0002  4.20645666266507E+0003  4.02064057623049E+0003
 4.80000000000000E+0002  4.09280672268908E+0003  4.49277310924370E+0003
 4.79900000000000E+0002  4.39446434573830E+0003  4.72429963985594E+0003
 4.79800000000000E+0002  4.14055222088836E+0003  3.79553229291717E+0003
 4.79700000000000E+0002  3.99293253301321E+0003  4.44299255702281E+0003
 4.79600000000000E+0002  4.54787611044418E+0003  4.18438415366146E+0003
 4.79500000000000E+0002  4.52956062424970E+0003  4.35078895558223E+0003
 4.79400000000000E+0002  4.21475342136855E+0003  4.28551068427371E+0003
 4.79300000000000E+0002  4.04740936374550E+0003  4.24340072028812E+0003
 4.79200000000000E+0002  4.47617959183674E+0003  4.09734645858343E+0003
 4.79100000000000E+0002  4.56431308523409E+0003  4.30476542617047E+0003
 4.79000000000000E+0002  4.02486722689076E+0003  3.88523121248499E+0003
 4.78900000000000E+0002  4.00686482593037E+0003  3.64775606242497E+0003
 4.78800000000000E+0002  4.10533013205282E+0003  3.94252581032413E+0003
 4.78700000000000E+0002  3.99011476590636E+0003  3.76250180072029E+0003
 4.78600000000000E+0002  4.00952605042017E+0003  3.96068475390156E+0003
 4.78500000000000E+0002  4.23964369747899E+0003  3.58451284513806E+0003
 4.78400000000000E+0002  4.16012004801921E+0003  3.34218487394958E+0003
 4.78300000000000E+0002  4.00326434573830E+0003  3.77987803121248E+0003
 4.78200000000000E+0002  3.93563793517407E+0003  4.05523649459784E+0003
 4.78100000000000E+0002  4.27862280912365E+0003  3.53128835534214E+0003
 4.78000000000000E+0002  3.86472412965186E+0003  3.57887731092437E+0003
 4.77900000000000E+0002  3.68407394957983E+0003  3.36363121248499E+0003
 4.77800000000000E+0002  3.94831788715486E+0003  3.35032509003601E+0003
 4.77700000000000E+0002  3.63116254501801E+0003  4.05539303721489E+0003
 4.77600000000000E+0002  4.10611284513806E+0003  3.70567683073229E+0003
 4.77500000000000E+0002  4.17420888355342E+0003  3.77533829531813E+0003
 4.77400000000000E+0002  3.87239471788715E+0003  3.58294741896759E+0003
 4.77300000000000E+0002  3.44018055222089E+0003  3.45051236494598E+0003
 4.77200000000000E+0002  3.37599807923169E+0003  3.61910876350540E+0003
 4.77100000000000E+0002  3.90902569027611E+0003  3.68125618247299E+0003
 4.77000000000000E+0002  3.91982713085234E+0003  3.59249651860744E+0003
 4.76900000000000E+0002  3.51485138055222E+0003  3.63914621848739E+0003
 4.76800000000000E+0002  4.24997551020408E+0003  3.51219015606243E+0003
 4.76700000000000E+0002  3.72774933973589E+0003  3.63053637454982E+0003
 4.76600000000000E+0002  3.55023001200480E+0003  3.63570228091237E+0003
 4.76500000000000E+0002  3.98463577430972E+0003  3.89258871548619E+0003
 4.76400000000000E+0002  3.61863913565426E+0003  3.45833949579832E+0003
 4.76300000000000E+0002  4.26093349339736E+0003  3.70959039615846E+0003
 4.76200000000000E+0002  4.37333109243698E+0003  3.33545354141657E+0003
 4.76100000000000E+0002  3.77205090036014E+0003  4.03394669867947E+0003
 4.76000000000000E+0002  3.59594045618247E+0003  4.15871116446579E+0003
 4.75900000000000E+0002  3.81635246098439E+0003  4.39900408163265E+0003
 4.75800000000000E+0002  3.99825498199280E+0003  3.60830732292917E+0003
 4.75700000000000E+0002  4.26516014405762E+0003  4.35548523409364E+0003
 4.75600000000000E+0002  3.72602737094838E+0003  4.28895462184874E+0003
 4.75500000000000E+0002  4.25529795918367E+0003  4.10486050420168E+0003
 4.75400000000000E+0002  4.42138967587035E+0003  4.31791500600240E+0003
 4.75300000000000E+0002  4.32261128451381E+0003  3.93047202881152E+0003
 4.75200000000000E+0002  4.35579831932773E+0003  4.17186074429772E+0003
 4.75100000000000E+0002  4.52001152460984E+0003  3.89947659063625E+0003
 4.75000000000000E+0002  4.22758991596639E+0003  4.39837791116447E+0003
 4.74900000000000E+0002  4.26829099639856E+0003  4.63334837935174E+0003
 4.74800000000000E+0002  4.50560960384154E+0003  4.53003025210084E+0003
 4.74700000000000E+0002  4.45035006002401E+0003  4.41684993997599E+0003
 4.74600000000000E+0002  4.66262184873950E+0003  4.25420216086435E+0003
 4.74500000000000E+0002  4.44643649459784E+0003  4.31822809123649E+0003
 4.74400000000000E+0002  4.48948571428571E+0003  4.59327346938776E+0003
 4.74300000000000E+0002  4.21537959183674E+0003  5.00607635054022E+0003
 4.74200000000000E+0002  4.83215750300120E+0003  4.35313709483794E+0003
 4.74100000000000E+0002  4.56963553421369E+0003  3.82042256902761E+0003
 4.74000000000000E+0002  4.40933589435774E+0003  4.24214837935174E+0003
 4.73900000000000E+0002  4.49026842737095E+0003  4.23228619447779E+0003
 4.73800000000000E+0002  4.36206002400960E+0003  4.16528595438175E+0003
 4.73700000000000E+0002  4.13288163265306E+0003  4.66356110444178E+0003
 4.73600000000000E+0002  4.61456326530612E+0003  4.61753757503001E+0003
 4.73500000000000E+0002  4.29443361344538E+0003  4.59421272509004E+0003
 4.73400000000000E+0002  4.46256038415366E+0003  4.37020024009604E+0003
 4.73300000000000E+0002  4.60438799519808E+0003  4.63757503001201E+0003
 4.73200000000000E+0002  4.09938151260504E+0003  4.09562448979592E+0003
 4.73100000000000E+0002  3.88037839135654E+0003  4.03300744297719E+0003
 4.73000000000000E+0002  4.71631596638655E+0003  4.35532869147659E+0003
 4.72900000000000E+0002  3.94659591836735E+0003  3.47305450180072E+0003
 4.72800000000000E+0002  3.55664825930372E+0003  3.52267851140456E+0003
 4.72700000000000E+0002  3.65808787515006E+0003  3.94722208883553E+0003
 4.72600000000000E+0002  3.51892148859544E+0003  3.33874093637455E+0003
 4.72500000000000E+0002  3.76860696278511E+0003  3.23777094837935E+0003
 4.72400000000000E+0002  3.52330468187275E+0003  3.38946074429772E+0003
 4.72300000000000E+0002  3.71319087635054E+0003  3.49731860744298E+0003
 4.72200000000000E+0002  3.63116254501801E+0003  3.25780840336134E+0003
 4.72100000000000E+0002  3.73197599039616E+0003  3.15715150060024E+0003
 4.72000000000000E+0002  3.87223817527011E+0003  3.20849747899160E+0003
 4.71900000000000E+0002  3.24231068427371E+0003  3.19957454981993E+0003
 4.71800000000000E+0002  2.90558751500600E+0003  3.02362064825930E+0003
 4.71700000000000E+0002  3.05539879951981E+0003  2.79068523409364E+0003
 4.71600000000000E+0002  2.80070396158463E+0003  2.73511260504202E+0003
 4.71500000000000E+0002  2.33311116446579E+0003  2.57168211284514E+0003
 4.71400000000000E+0002  2.91388427370948E+0003  2.78364081632653E+0003
 4.71300000000000E+0002  2.57496950780312E+0003  2.57590876350540E+0003
 4.71200000000000E+0002  2.76751692677071E+0003  2.50906506602641E+0003
 4.71100000000000E+0002  2.92092869147659E+0003  2.87240048019208E+0003
 4.71000000000000E+0002  2.92515534213685E+0003  2.73511260504202E+0003
 4.70900000000000E+0002  2.77283937575030E+0003  2.45114429771909E+0003
 4.70800000000000E+0002  2.79005906362545E+0003  2.34391260504202E+0003
 4.70700000000000E+0002  3.30508427370948E+0003  2.80117358943577E+0003
 4.70600000000000E+0002  2.52910252100840E+0003  3.03254357743097E+0003
 4.70500000000000E+0002  2.59485042016807E+0003  2.73041632653061E+0003
 4.70400000000000E+0002  2.84359663865546E+0003  2.56291572629052E+0003
 4.70300000000000E+0002  2.67327827130852E+0003  2.50812581032413E+0003
 4.70200000000000E+0002  2.67030396158463E+0003  3.11050180072029E+0003
 4.70100000000000E+0002  2.55884561824730E+0003  2.74794909963986E+0003
 4.70000000000000E+0002  2.72321536614646E+0003  2.84657094837935E+0003
 4.69900000000000E+0002  2.83060360144058E+0003  2.88633277310924E+0003
 4.69800000000000E+0002  2.75671548619448E+0003  2.49591548619448E+0003
 4.69700000000000E+0002  2.79898199279712E+0003  2.71194429771909E+0003
 4.69600000000000E+0002  2.75374117647059E+0003  3.17906746698679E+0003
 4.69500000000000E+0002  2.86817382953181E+0003  2.90276974789916E+0003
 4.69400000000000E+0002  2.74497478991597E+0003  2.75608931572629E+0003
 4.69300000000000E+0002  3.11566770708283E+0003  3.01751548619448E+0003
 4.69200000000000E+0002  2.52111884753902E+0003  2.86222521008403E+0003
 4.69100000000000E+0002  2.98808547418968E+0003  2.58858871548619E+0003
 4.69000000000000E+0002  3.18329411764706E+0003  2.90370900360144E+0003
 4.68900000000000E+0002  3.46491428571429E+0003  3.11770276110444E+0003
 4.68800000000000E+0002  3.27675006002401E+0003  3.16497863145258E+0003
 4.68700000000000E+0002  3.75279615846339E+0003  3.39666170468187E+0003
 4.68600000000000E+0002  4.07480432172869E+0003  3.61550828331333E+0003
 4.68500000000000E+0002  3.90385978391357E+0003  3.69925858343337E+0003
 4.68400000000000E+0002  3.98353997599040E+0003  4.52298583433373E+0003
 4.68300000000000E+0002  4.60485762304922E+0003  4.77141896758703E+0003
 4.68200000000000E+0002  4.69330420168067E+0003  4.64195822328932E+0003
 4.68100000000000E+0002  5.06571908763505E+0003  4.82292148859544E+0003
 4.68000000000000E+0002  5.10047154861945E+0003  4.99511836734694E+0003
 4.67900000000000E+0002  4.92592653061225E+0003  5.41026938775510E+0003
 4.67800000000000E+0002  5.85813781512605E+0003  5.91762400960384E+0003
 4.67700000000000E+0002  6.62018727490996E+0003  6.26154813925570E+0003
 4.67600000000000E+0002  6.33449699879952E+0003  6.41417719087635E+0003
 4.67500000000000E+0002  7.25183673469388E+0003  6.78048691476591E+0003
 4.67400000000000E+0002  7.05224489795918E+0003  7.31132292917167E+0003
 4.67300000000000E+0002  7.49494741896759E+0003  7.48524177671068E+0003
 4.67200000000000E+0002  7.73179639855942E+0003  7.82885282112845E+0003
 4.67100000000000E+0002  7.82212148859544E+0003  7.61329363745498E+0003
 4.67000000000000E+0002  8.10515054021609E+0003  8.00527635054022E+0003
 4.66900000000000E+0002  8.21034717887155E+0003  8.07963409363746E+0003
 4.66800000000000E+0002  8.80974885954382E+0003  8.24682160864346E+0003
 4.66700000000000E+0002  8.17355966386555E+0003  8.89584729891957E+0003
 4.66600000000000E+0002  8.14726050420168E+0003  8.11078607442977E+0003
 4.66500000000000E+0002  8.39522400960384E+0003  7.31695846338535E+0003
 4.66400000000000E+0002  8.48163553421368E+0003  7.63567923169268E+0003
 4.66300000000000E+0002  7.18248835534214E+0003  7.22209363745498E+0003
 4.66200000000000E+0002  7.59372581032413E+0003  6.42059543817527E+0003
 4.66100000000000E+0002  6.90133781512605E+0003  6.56336230492197E+0003
 4.66000000000000E+0002  6.38005090036014E+0003  5.47586074429772E+0003
 4.65900000000000E+0002  6.25121632653061E+0003  5.29614981992797E+0003
 4.65800000000000E+0002  5.81681056422569E+0003  5.20018919567827E+0003
 4.65700000000000E+0002  4.87927683073229E+0003  4.87598943577431E+0003
 4.65600000000000E+0002  4.43391308523409E+0003  4.76907082833133E+0003
 4.65500000000000E+0002  4.23510396158463E+0003  4.72602160864346E+0003
 4.65400000000000E+0002  4.13538631452581E+0003  4.08278799519808E+0003
 4.65300000000000E+0002  3.74590828331333E+0003  4.18923697478992E+0003
 4.65200000000000E+0002  3.41795150060024E+0003  3.05680768307323E+0003
 4.65100000000000E+0002  3.65104345738295E+0003  3.27831548619448E+0003
 4.65000000000000E+0002  3.27706314525810E+0003  3.33905402160864E+0003
 4.64900000000000E+0002  3.19378247298920E+0003  2.98166722689076E+0003
 4.64800000000000E+0002  3.05946890756303E+0003  2.97086578631453E+0003
 4.64700000000000E+0002  3.01172340936375E+0003  2.65558895558223E+0003
 4.64600000000000E+0002  2.83780456182473E+0003  2.78520624249700E+0003
 4.64500000000000E+0002  2.69503769507803E+0003  2.59610276110444E+0003
 4.64400000000000E+0002  3.02080288115246E+0003  2.51391788715486E+0003
 4.64300000000000E+0002  2.75890708283313E+0003  2.82590732292917E+0003
 4.64200000000000E+0002  2.55070540216086E+0003  2.26705018007203E+0003
 4.64100000000000E+0002  3.00796638655462E+0003  2.21773925570228E+0003
 4.64000000000000E+0002  3.16075198079232E+0003  2.77737911164466E+0003
 4.63900000000000E+0002  2.48464441776711E+0003  2.63007250900360E+0003
 4.63800000000000E+0002  2.41686146458583E+0003  2.41106938775510E+0003
 4.63700000000000E+0002  2.18940504201681E+0003  2.57575222088836E+0003
 4.63600000000000E+0002  2.37569075630252E+0003  2.56682929171669E+0003
 4.63500000000000E+0002  2.66232028811525E+0003  2.15183481392557E+0003
 4.63400000000000E+0002  2.77550060024010E+0003  2.38743145258103E+0003
 4.63300000000000E+0002  2.66639039615846E+0003  2.47024249699880E+0003
 4.63200000000000E+0002  2.54099975990396E+0003  2.27409459783914E+0003
 4.63100000000000E+0002  2.52190156062425E+0003  2.55508859543818E+0003
 4.63000000000000E+0002  2.63132484993998E+0003  2.85768547418968E+0003
 4.62900000000000E+0002  2.58968451380552E+0003  2.86739111644658E+0003
 4.62800000000000E+0002  2.79272028811525E+0003  2.74059159663866E+0003
 4.62700000000000E+0002  3.21084561824730E+0003  2.98291956782713E+0003
 4.62600000000000E+0002  3.47117599039616E+0003  3.18611188475390E+0003
 4.62500000000000E+0002  3.37678079231693E+0003  3.34500264105642E+0003
 4.62400000000000E+0002  4.04506122448980E+0003  4.00279471788716E+0003
 4.62300000000000E+0002  4.59374309723890E+0003  5.18907466986795E+0003
 4.62200000000000E+0002  4.87113661464586E+0003  5.83481296518607E+0003
 4.62100000000000E+0002  6.46521008403361E+0003  7.00293397358944E+0003
 4.62000000000000E+0002  7.83370564225690E+0003  7.67575414165666E+0003
 4.61900000000000E+0002  9.67558607442977E+0003  8.98773781512605E+0003
 4.61800000000000E+0002  1.11066986794717E+0004  1.12508744297719E+0004
 4.61700000000000E+0002  1.40365503001200E+0004  1.34164849939976E+0004
 4.61600000000000E+0002  1.55864787515006E+0004  1.48405531812725E+0004
 4.61500000000000E+0002  1.79170852340936E+0004  1.61824364945978E+0004
 4.61400000000000E+0002  1.89069042016807E+0004  1.87705555822329E+0004
 4.61300000000000E+0002  2.03987553421369E+0004  1.86381205282113E+0004
 4.61200000000000E+0002  2.13037282112845E+0004  2.09108062424970E+0004
 4.61100000000000E+0002  2.04682602641056E+0004  2.15405771908764E+0004
 4.61000000000000E+0002  2.14197262905162E+0004  2.09679442977191E+0004
 4.60900000000000E+0002  2.09555774309724E+0004  1.97625661464586E+0004
 4.60800000000000E+0002  1.90869282112845E+0004  1.85130429771909E+0004
 4.60700000000000E+0002  1.75564110444178E+0004  1.69822127250900E+0004
 4.60600000000000E+0002  1.53615270108043E+0004  1.54651582232893E+0004
 4.60500000000000E+0002  1.30210583433373E+0004  1.26777603841536E+0004
 4.60400000000000E+0002  1.10392288115246E+0004  9.34011524609844E+0003
 4.60300000000000E+0002  9.27107995198079E+0003  8.39334549819928E+0003
 4.60200000000000E+0002  6.97256470588235E+0003  6.43531044417767E+0003
 4.60100000000000E+0002  5.09295750300120E+0003  5.48040048019208E+0003
 4.60000000000000E+0002  4.67937190876351E+0003  4.08075294117647E+0003
 4.59900000000000E+0002  3.19206050420168E+0003  3.22618679471789E+0003
 4.59800000000000E+0002  3.00937527010804E+0003  2.56009795918367E+0003
 4.59700000000000E+0002  2.00233661464586E+0003  1.91451620648259E+0003
 4.59600000000000E+0002  1.72838703481393E+0003  1.74858103241297E+0003
 4.59500000000000E+0002  1.49153805522209E+0003  1.63336566626651E+0003
 4.59400000000000E+0002  1.63696614645858E+0003  1.41514525810324E+0003
 4.59300000000000E+0002  1.19144585834334E+0003  1.30853973589436E+0003
 4.59200000000000E+0002  1.12788955582233E+0003  1.02754573829532E+0003
 4.59100000000000E+0002  1.12679375750300E+0003  9.04816326530612E+0002
 4.59000000000000E+0002  1.02128403361344E+0003  1.12616758703481E+0003
 4.58900000000000E+0002  9.93262905162065E+0002  1.10566050420168E+0003
 4.58800000000000E+0002  8.22631452581032E+0002  1.00844753901560E+0003
 4.58700000000000E+0002  1.02050132052821E+0003  9.79017527010804E+0002
 4.58600000000000E+0002  9.48178631452581E+0002  7.75042496998799E+0002
 4.58500000000000E+0002  7.78329891956783E+0002  8.05881392557023E+0002
 4.58400000000000E+0002  8.49869867947179E+0002  6.96614645858343E+0002
 4.58300000000000E+0002  7.49369507803121E+0002  8.09012244897959E+0002
 4.58200000000000E+0002  9.12017286914766E+0002  7.62675630252101E+0002
 4.58100000000000E+0002  7.05850660264106E+0002  6.20691476590636E+0002
 4.58000000000000E+0002  5.90009123649460E+0002  7.84278511404562E+0002
 4.57900000000000E+0002  6.64523409363745E+0002  8.53783433373349E+0002
 4.57800000000000E+0002  7.13834333733493E+0002  6.20534933973589E+0002
 4.57700000000000E+0002  6.55913565426171E+0002  7.82243457382953E+0002
 4.57600000000000E+0002  7.48743337334934E+0002  7.87252821128451E+0002
 4.57500000000000E+0002  7.26357743097239E+0002  5.63396878751501E+0002
 4.57400000000000E+0002  7.95079951980792E+0002  6.47147178871549E+0002
 4.57300000000000E+0002  5.78738055222089E+0002  7.25888115246098E+0002
 4.57200000000000E+0002  6.33684513805522E+0002  6.80334213685474E+0002
 4.57100000000000E+0002  6.47773349339736E+0002  6.39163505402161E+0002
 4.57000000000000E+0002  6.27735894357743E+0002  6.27109723889556E+0002
 4.56900000000000E+0002  6.67497719087635E+0002  6.75011764705882E+0002
 4.56800000000000E+0002  6.29301320528211E+0002  3.90104201680672E+0002
 4.56700000000000E+0002  6.81116926770708E+0002  7.23070348139256E+0002
 4.56600000000000E+0002  5.56352460984394E+0002  6.28048979591837E+0002
 4.56500000000000E+0002  6.03158703481393E+0002  7.09294597839136E+0002
 4.56400000000000E+0002  6.19595678271309E+0002  7.02250180072029E+0002
 4.56300000000000E+0002  6.89883313325330E+0002  8.28423529411765E+0002
 4.56200000000000E+0002  6.58418247298920E+0002  7.19939495798319E+0002
 4.56100000000000E+0002  6.85343577430972E+0002  7.40759663865546E+0002
 4.56000000000000E+0002  5.18782232893157E+0002  7.00684753901561E+0002
 4.55900000000000E+0002  5.67623529411765E+0002  6.24761584633854E+0002
 4.55800000000000E+0002  7.18530612244898E+0002  5.59483313325330E+0002
 4.55700000000000E+0002  6.19439135654262E+0002  6.14586314525810E+0002
 4.55600000000000E+0002  6.44172869147659E+0002  4.97962064825930E+0002
 4.55500000000000E+0002  8.22161824729892E+0002  7.67371908763505E+0002
 4.55400000000000E+0002  5.90009123649460E+0002  6.62331812725090E+0002
 4.55300000000000E+0002  6.95049219687875E+0002  7.06320288115246E+0002
 4.55200000000000E+0002  7.07572629051621E+0002  4.34405762304922E+0002
 4.55100000000000E+0002  6.79864585834334E+0002  6.40102761104442E+0002
 4.55000000000000E+0002  6.41668187274910E+0002  7.27296998799520E+0002

[Region 2]
Region Name=O 1s 4k
Dimension 1 name=Binding Energy [eV]
Dimension 1 size=201
Dimension 1 scale=546.00000 545.90000 545.80000 545.70000 545.60000 545.50000 545.40000 545.30000 545.20000 545.10000 545.00000 544.90000 544.80000 544.70000 544.60000 544.50000 544.40000 544.30000 544.20000 544.10000 544.00000 543.90000 543.80000 543.70000 543.60000 543.50000 543.40000 543.30000 543.20000 543.10000 543.00000 542.90000 542.80000 542.70000 542.60000 542.50000 542.40000 542.30000 542.20000 542.10000 542.00000 541.90000 541.80000 541.70000 541.60000 541.50000 541.40000 541.30000 541.20000 541.10000 541.00000 540.90000 540.80000 540.70000 540.60000 540.50000 540.40000 540.30000 540.20000 540.10000 540.00000 539.90000 539.80000 539.70000 539.60000 539.50000 539.40000 539.30000 539.20000 539.10000 539.00000 538.90000 538.80000 538.70000 538.60000 538.50000 538.40000 538.30000 538.20000 538.10000 538.00000 537.90000 537.80000 537.70000 537.60000 537.50000 537.40000 537.30000 537.20000 537.10000 537.00000 536.90000 536.80000 536.70000 536.60000 536.50000 536.40000 536.30000 536.20000 536.10000 536.00000 535.90000 535.80000 535.70000 535.60000 535.50000 535.40000 535.30000 535.20000 535.10000 535.00000 534.90000 534.80000 534.70000 534.60000 534.50000 534.40000 534.30000 534.20000 534.10000 534.00000 533.90000 533.80000 533.70000 533.60000 533.50000 533.40000 533.30000 533.20000 533.10000 533.00000 532.90000 532.80000 532.70000 532.60000 532.50000 532.40000 532.30000 532.20000 532.10000 532.00000 531.90000 531.80000 531.70000 531.60000 531.50000 531.40000 531.30000 531.20000 531.10000 531.00000 530.90000 530.80000 530.70000 530.60000 530.50000 530.40000 530.30000 530.20000 530.10000 530.00000 529.90000 529.80000 529.70000 529.60000 529.50000 529.40000 529.30000 529.20000 529.10000 529.00000 528.90000 528.80000 528.70000 528.60000 528.50000 528.40000 528.30000 528.20000 528.10000 528.00000 527.90000 527.80000 527.70000 527.60000 527.50000 527.40000 527.30000 527.20000 527.10000 527.00000 526.90000 526.80000 526.70000 526.60000 526.50000 526.40000 526.30000 526.20000 526.10000 526.00000
Dimension 2 name=Seq. Iteration[a.u.]
Dimension 2 size=2
Dimension 2 scale=1.00000 2.00000

[Info 2]
Region Name=O 1s 4k
Excitation Energy=4000
Energy Scale=Binding
Acquisition Mode=Swept
Center Energy=536
Low Energy=526
High Energy=546
Energy Step=0.1
Step Time=200
Detector First X-Channel=1
Detector Last X-Channel=1064
Detector First Y-Channel=1
Detector Last Y-Channel=1000
Number of Slices=1
Lens Mode=X6_25012013
Pass Energy=200
Number of Sweeps=1
File=D:\Data\BL data\sample3.pxt,.txt
Sequence=D:\Data\BL data\2014\July\Jet.seq
Spectrum Name=O 1s 4k
Instrument=HiPPHAXPES-4EH002
Location=931
User=Matthias
Sample=TiO2
Comments=
Date=9/9/2014
Time=1:57:19 PM
Time per Spectrum Channel=34.4

[Run Mode Information 2]
Name=Add Dimension


[Data 2]
 5.46000000000000E+0002  7.60468379351741E+0003  7.26404705882353E+0003
 5.45900000000000E+0002  8.11673469387755E+0003  7.16010276110444E+0003
 5.45800000000000E+0002  7.58949915966387E+0003  7.10672172869148E+0003
 5.45700000000000E+0002  7.56601776710684E+0003  7.47130948379352E+0003
 5.45600000000000E+0002  7.91996062424970E+0003  7.63755774309724E+0003
 5.45500000000000E+0002  7.44923697478992E+0003  7.65963025210084E+0003
 5.45400000000000E+0002  7.53690084033613E+0003  8.08448691476591E+0003
 5.45300000000000E+0002  7.71614213685474E+0003  7.71551596638656E+0003
 5.45200000000000E+0002  8.46457238895558E+0003  7.52829099639856E+0003
 5.45100000000000E+0002  7.79159567827131E+0003  7.41213637454982E+0003
 5.45000000000000E+0002  7.71770756302521E+0003  7.76326146458583E+0003
 5.44900000000000E+0002  7.50825354141657E+0003  6.77187707082833E+0003
 5.44800000000000E+0002  7.48179783913565E+0003  7.86470108043217E+0003
 5.44700000000000E+0002  7.28658919567827E+0003  7.78893445378151E+0003
 5.44600000000000E+0002  7.12973349339736E+0003  8.10718559423770E+0003
 5.44500000000000E+0002  7.05020984393757E+0003  7.71050660264106E+0003
 5.44400000000000E+0002  6.65196542617047E+0003  7.70111404561825E+0003
 5.44300000000000E+0002  7.03032893157263E+0003  7.06695990396159E+0003
 5.44200000000000E+0002  7.91682977190876E+0003  7.79597887154862E+0003
 5.44100000000000E+0002  7.38959423769508E+0003  7.12503721488595E+0003
 5.44000000000000E+0002  7.51310636254502E+0003  7.01123073229292E+0003
 5.43900000000000E+0002  7.34670156062425E+0003  7.46817863145258E+0003
 5.43800000000000E+0002  7.60891044417767E+0003  7.14804897959184E+0003
 5.43700000000000E+0002  7.05459303721489E+0003  6.86439375750300E+0003
 5.43600000000000E+0002  7.42325090036014E+0003  6.36314429771909E+0003
 5.43500000000000E+0002  6.92325378151261E+0003  6.80725570228091E+0003
 5.43400000000000E+0002  6.49166578631453E+0003  6.86548955582233E+0003
 5.43300000000000E+0002  7.00449939975990E+0003  6.55396974789916E+0003
 5.43200000000000E+0002  6.74714333733493E+0003  6.15462953181272E+0003
 5.43100000000000E+0002  5.94267082833133E+0003  6.34451572629052E+0003
 5.43000000000000E+0002  6.31649459783914E+0003  6.34013253301321E+0003
 5.42900000000000E+0002  6.26327010804322E+0003  6.31633805522209E+0003
 5.42800000000000E+0002  6.19861800720288E+0003  6.56445810324130E+0003
 5.42700000000000E+0002  6.24777238895558E+0003  6.63662424969988E+0003
 5.42600000000000E+0002  6.37535462184874E+0003  6.03096086434574E+0003
 5.42500000000000E+0002  6.10704057623049E+0003  6.03205666266507E+0003
 5.42400000000000E+0002  5.65197118847539E+0003  5.52548475390156E+0003
 5.42300000000000E+0002  5.71865834333734E+0003  5.53174645858343E+0003
 5.42200000000000E+0002  6.24996398559424E+0003  5.79849507803121E+0003
 5.42100000000000E+0002  5.85485042016807E+0003  6.06101704681873E+0003
 5.42000000000000E+0002  6.09639567827131E+0003  5.89852581032413E+0003
 5.41900000000000E+0002  5.35610564225690E+0003  5.74464441776711E+0003
 5.41800000000000E+0002  5.65431932773109E+0003  5.67889651860744E+0003
 5.41700000000000E+0002  5.59639855942377E+0003  5.56258535414166E+0003
 5.41600000000000E+0002  6.47319375750300E+0003  5.33168499399760E+0003
 5.41500000000000E+0002  5.30976902761104E+0003  5.50544729891957E+0003
 5.41400000000000E+0002  5.26828523409364E+0003  6.00121776710684E+0003
 5.41300000000000E+0002  5.10281968787515E+0003  5.70269099639856E+0003
 5.41200000000000E+0002  4.96020936374550E+0003  5.32010084033613E+0003
 5.41100000000000E+0002  5.33105882352941E+0003  5.36393277310924E+0003
 5.41000000000000E+0002  5.37692581032413E+0003  5.46709435774310E+0003
 5.40900000000000E+0002  5.61925378151261E+0003  5.19611908763505E+0003
 5.40800000000000E+0002  5.90995342136855E+0003  5.52892869147659E+0003
 5.40700000000000E+0002  5.73368643457383E+0003  5.25372677070828E+0003
 5.40600000000000E+0002  5.42373205282113E+0003  5.18343913565426E+0003
 5.40500000000000E+0002  5.26985066026411E+0003  4.87019735894358E+0003
 5.40400000000000E+0002  5.91793709483794E+0003  4.98040336134454E+0003
 5.40300000000000E+0002  5.49558511404562E+0003  5.40854741896759E+0003
 5.40200000000000E+0002  5.34358223289316E+0003  5.12176134453782E+0003
 5.40100000000000E+0002  5.70535222088836E+0003  5.36315006002401E+0003
 5.40000000000000E+0002  5.62034957983193E+0003  5.15463529411765E+0003
 5.39900000000000E+0002  5.42701944777911E+0003  5.15228715486195E+0003
 5.39800000000000E+0002  4.82026026410564E+0003  5.02063481392557E+0003
 5.39700000000000E+0002  5.63412533013205E+0003  5.15400912364946E+0003
 5.39600000000000E+0002  5.85782472989196E+0003  5.01014645858343E+0003
 5.39500000000000E+0002  5.61033085234094E+0003  4.71161968787515E+0003
 5.39400000000000E+0002  5.42028811524610E+0003  5.30976902761104E+0003
 5.39300000000000E+0002  5.52438895558223E+0003  4.85689123649460E+0003
 5.39200000000000E+0002  5.28628763505402E+0003  4.69220840336134E+0003
 5.39100000000000E+0002  5.39539783913565E+0003  4.95159951980792E+0003
 5.39000000000000E+0002  5.49777671068427E+0003  4.95754813925570E+0003
 5.38900000000000E+0002  5.83622184873950E+0003  5.11847394957983E+0003
 5.38800000000000E+0002  5.53941704681873E+0003  4.89962737094838E+0003
 5.38700000000000E+0002  5.30585546218487E+0003  5.22226170468187E+0003
 5.38600000000000E+0002  5.31164753901561E+0003  5.37207298919568E+0003
 5.38500000000000E+0002  5.28988811524610E+0003  5.39868523409364E+0003
 5.38400000000000E+0002  5.41543529411765E+0003  4.96568835534214E+0003
 5.38300000000000E+0002  5.33215462184874E+0003  4.91841248499400E+0003
 5.38200000000000E+0002  5.39195390156062E+0003  5.03816758703481E+0003
 5.38100000000000E+0002  5.20206770708283E+0003  5.01734741896759E+0003
 5.38000000000000E+0002  4.92921392557023E+0003  4.72664777911164E+0003
 5.37900000000000E+0002  5.49386314525810E+0003  4.86002208883553E+0003
 5.37800000000000E+0002  5.11221224489796E+0003  5.01061608643457E+0003
 5.37700000000000E+0002  5.33497238895558E+0003  5.42326242496999E+0003
 5.37600000000000E+0002  5.13553709483794E+0003  4.83982809123649E+0003
 5.37500000000000E+0002  4.89947082833133E+0003  5.29395822328932E+0003
 5.37400000000000E+0002  4.98275150060024E+0003  4.69847010804322E+0003
 5.37300000000000E+0002  5.16167971188475E+0003  4.69831356542617E+0003
 5.37200000000000E+0002  4.57495798319328E+0003  4.71678559423770E+0003
 5.37100000000000E+0002  4.79709195678271E+0003  4.45066314525810E+0003
 5.37000000000000E+0002  4.77674141656663E+0003  4.23275582232893E+0003
 5.36900000000000E+0002  4.57761920768307E+0003  4.55429435774310E+0003
 5.36800000000000E+0002  4.94392893157263E+0003  4.62317310924370E+0003
 5.36700000000000E+0002  4.91716014405762E+0003  4.36988715486194E+0003
 5.36600000000000E+0002  4.51844609843938E+0003  4.54083169267707E+0003
 5.36500000000000E+0002  4.57026170468187E+0003  4.60501416566627E+0003
 5.36400000000000E+0002  4.84139351740696E+0003  4.69940936374550E+0003
 5.36300000000000E+0002  4.98478655462185E+0003  4.70207058823529E+0003
 5.36200000000000E+0002  5.33356350540216E+0003  4.46913517406963E+0003
 5.36100000000000E+0002  5.26640672268908E+0003  4.77235822328932E+0003
 5.36000000000000E+0002  4.86565762304922E+0003  4.38522833133253E+0003
 5.35900000000000E+0002  5.34530420168067E+0003  5.43969939975990E+0003
 5.35800000000000E+0002  5.41606146458583E+0003  5.22523601440576E+0003
 5.35700000000000E+0002  5.62269771908764E+0003  5.39633709483794E+0003
 5.35600000000000E+0002  5.78284081632653E+0003  5.44533493397359E+0003
 5.35500000000000E+0002  6.20941944777911E+0003  6.00247010804322E+0003
 5.35400000000000E+0002  6.15322064825930E+0003  6.06242593037215E+0003
 5.35300000000000E+0002  6.38286866746699E+0003  6.21223721488595E+0003
 5.35200000000000E+0002  6.29191740696279E+0003  6.28346410564226E+0003
 5.35100000000000E+0002  6.20425354141657E+0003  6.23900600240096E+0003
 5.35000000000000E+0002  6.72601008403361E+0003  6.31852965186074E+0003
 5.34900000000000E+0002  6.74557791116447E+0003  6.58543481392557E+0003
 5.34800000000000E+0002  7.09607683073229E+0003  6.72538391356543E+0003
 5.34700000000000E+0002  6.89366722689076E+0003  6.65040000000000E+0003
 5.34600000000000E+0002  6.75199615846339E+0003  6.67106362545018E+0003
 5.34500000000000E+0002  7.80349291716687E+0003  6.89116254501801E+0003
 5.34400000000000E+0002  8.00950300120048E+0003  7.74917262905162E+0003
 5.34300000000000E+0002  8.42402785114046E+0003  8.84888451380552E+0003
 5.34200000000000E+0002  8.91150156062425E+0003  8.87440096038415E+0003
 5.34100000000000E+0002  9.41353373349340E+0003  9.53688931572629E+0003
 5.34000000000000E+0002  1.05155937575030E+0004  1.13228840336134E+0004
 5.33900000000000E+0002  1.27009286914765E+0004  1.27211226890756E+0004
 5.33800000000000E+0002  1.36672662665066E+0004  1.48702962785114E+0004
 5.33700000000000E+0002  1.66323399759904E+0004  1.77865286914766E+0004
 5.33600000000000E+0002  2.00703289315726E+0004  2.07555159663866E+0004
 5.33500000000000E+0002  2.40914391356543E+0004  2.33596024009604E+0004
 5.33400000000000E+0002  2.82100753901561E+0004  2.63830665066026E+0004
 5.33300000000000E+0002  3.10330084033613E+0004  3.09691390156062E+0004
 5.33200000000000E+0002  3.61521085234094E+0004  3.59581522208884E+0004
 5.33100000000000E+0002  3.96827707082833E+0004  3.91685282112845E+0004
 5.33000000000000E+0002  4.37973368547419E+0004  4.28200412965186E+0004
 5.32900000000000E+0002  4.89237944777911E+0004  4.79109637454982E+0004
 5.32800000000000E+0002  5.22988533013205E+0004  5.14444436974790E+0004
 5.32700000000000E+0002  5.32424921968788E+0004  5.35818765906363E+0004
 5.32600000000000E+0002  5.39520998799520E+0004  5.29618112845138E+0004
 5.32500000000000E+0002  5.35165983193277E+0004  5.10585661464586E+0004
 5.32400000000000E+0002  5.12462607442977E+0004  4.83810612244898E+0004
 5.32300000000000E+0002  4.76352921968788E+0004  4.59466669867947E+0004
 5.32200000000000E+0002  4.21559875150060E+0004  4.31739841536615E+0004
 5.32100000000000E+0002  3.67748350540216E+0004  3.84622079231693E+0004
 5.32000000000000E+0002  3.21864144057623E+0004  3.26879769507803E+0004
 5.31900000000000E+0002  2.71930180072029E+0004  2.72047587034814E+0004
 5.31800000000000E+0002  2.21122708283313E+0004  2.20859716686675E+0004
 5.31700000000000E+0002  1.93411534213685E+0004  1.82184297719088E+0004
 5.31600000000000E+0002  1.48829762304922E+0004  1.46655385354141E+0004
 5.31500000000000E+0002  1.18837762304922E+0004  1.11115515006002E+0004
 5.31400000000000E+0002  9.64020744297719E+0003  9.18012869147659E+0003
 5.31300000000000E+0002  7.46786554621849E+0003  7.60969315726291E+0003
 5.31200000000000E+0002  7.07588283313325E+0003  6.21521152460984E+0003
 5.31100000000000E+0002  6.34733349339736E+0003  4.85626506602641E+0003
 5.31000000000000E+0002  5.09233133253301E+0003  5.10579399759904E+0003
 5.30900000000000E+0002  4.43579159663866E+0003  4.82996590636254E+0003
 5.30800000000000E+0002  4.18125330132053E+0003  4.40291764705882E+0003
 5.30700000000000E+0002  4.26046386554622E+0003  4.32229819927971E+0003
 5.30600000000000E+0002  4.35282400960384E+0003  4.42952989195678E+0003
 5.30500000000000E+0002  4.02862424969988E+0003  3.97806098439376E+0003
 5.30400000000000E+0002  3.68767442977191E+0003  4.57120096038415E+0003
 5.30300000000000E+0002  3.89744153661465E+0003  4.28535414165666E+0003
 5.30200000000000E+0002  3.71585210084034E+0003  4.06478559423770E+0003
 5.30100000000000E+0002  3.76672845138055E+0003  3.60408067226891E+0003
 5.30000000000000E+0002  3.68923985594238E+0003  3.49011764705882E+0003
 5.29900000000000E+0002  4.03926914765906E+0003  3.41403793517407E+0003
 5.29800000000000E+0002  3.59907130852341E+0003  3.69080528211285E+0003
 5.29700000000000E+0002  3.70927731092437E+0003  3.66904585834334E+0003
 5.29600000000000E+0002  3.82637118847539E+0003  3.67655990396158E+0003
 5.29500000000000E+0002  3.69315342136855E+0003  3.78613973589436E+0003
 5.29400000000000E+0002  3.82136182472989E+0003  3.31807731092437E+0003
 5.29300000000000E+0002  3.60361104441777E+0003  3.40840240096038E+0003
 5.29200000000000E+0002  3.33889747899160E+0003  4.09985114045618E+0003
 5.29100000000000E+0002  3.70943385354142E+0003  3.41904729891957E+0003
 5.29000000000000E+0002  3.75498775510204E+0003  3.65151308523409E+0003
 5.28900000000000E+0002  3.39540936374550E+0003  3.74700408163265E+0003
 5.28800000000000E+0002  3.46460120048019E+0003  3.84233853541417E+0003
 5.28700000000000E+0002  3.62161344537815E+0003  3.38867803121249E+0003
 5.28600000000000E+0002  3.49465738295318E+0003  3.79537575030012E+0003
 5.28500000000000E+0002  3.40824585834334E+0003  3.71131236494598E+0003
 5.28400000000000E+0002  3.28880384153661E+0003  3.70912076830732E+0003
 5.28300000000000E+0002  3.54349867947179E+0003  3.37505882352941E+0003
 5.28200000000000E+0002  4.05633229291717E+0003  3.54193325330132E+0003
 5.28100000000000E+0002  3.77079855942377E+0003  3.80069819927971E+0003
 5.28000000000000E+0002  3.54349867947179E+0003  3.76469339735894E+0003
 5.27900000000000E+0002  3.26845330132053E+0003  3.81478703481393E+0003
 5.27800000000000E+0002  3.78394813925570E+0003  3.57762496998800E+0003
 5.27700000000000E+0002  3.50232797118848E+0003  3.24575462184874E+0003
 5.27600000000000E+0002  4.20332581032413E+0003  3.32136470588235E+0003
 5.27500000000000E+0002  4.15918079231693E+0003  3.58419975990396E+0003
 5.27400000000000E+0002  4.19815990396158E+0003  3.73463721488595E+0003
 5.27300000000000E+0002  3.46100072028812E+0003  3.70019783913565E+0003
 5.27200000000000E+0002  3.67061128451381E+0003  3.32261704681873E+0003
 5.27100000000000E+0002  3.11206722689076E+0003  3.20661896758704E+0003
 5.27000000000000E+0002  3.71397358943577E+0003  3.85799279711885E+0003
 5.26900000000000E+0002  3.67906458583433E+0003  3.70614645858343E+0003
 5.26800000000000E+0002  3.51234669867947E+0003  3.62192653061225E+0003
 5.26700000000000E+0002  4.03112893157263E+0003  4.02502376950780E+0003
 5.26600000000000E+0002  3.59343577430972E+0003  3.98103529411765E+0003
 5.26500000000000E+0002  3.88773589435774E+0003  3.29929219687875E+0003
 5.26400000000000E+0002  3.68250852340936E+0003  3.21366338535414E+0003
 5.26300000000000E+0002  3.79302761104442E+0003  3.49043073229292E+0003
 5.26200000000000E+0002  3.32715678271309E+0003  3.58075582232893E+0003
 5.26100000000000E+0002  3.51485138055222E+0003  3.51860840336134E+0003
 5.26000000000000E+0002  3.68078655462185E+0003  3.50608499399760E+0003

