z:\sample116.vms
Si 2p
	Characteristic Energy eV	1486.6	Acquisition Time s	3
KE_Si 2p	BE_Si 2p	CPS_Si 2p	Si 2p_1_Si 2p	Si 2p_2_Si 2p	Background_Si 2p	Envelope_Si 2p
1376.69	109.91	165.333	165.333	165.333	165.333	165.333
1376.72	109.885	172	172	172	172	172
1376.74	109.86	181.333	181.333	181.333	181.333	181.333
1376.77	109.835	164	164	164	164	164
1376.79	109.81	163.667	163.667	163.667	163.667	163.667
1376.82	109.785	171.667	171.667	171.667	171.667	171.667
1376.84	109.76	167	167	167	167	167
1376.87	109.735	159.333	159.333	159.333	159.333	159.333
1376.89	109.71	146.667	146.667	146.667	146.667	146.667
1376.92	109.685	165.333	165.333	165.333	165.333	165.333
1376.94	109.66	166	166	166	166	166
1376.97	109.635	167.667	167.667	167.667	167.667	167.667
1376.99	109.61	161.333	161.333	161.333	161.333	161.333
1377.02	109.585	170	170	170	170	170
1377.04	109.56	151.333	151.333	151.333	151.333	151.333
1377.07	109.535	157	157	157	157	157
1377.09	109.51	167.333	167.333	167.333	167.333	167.333
1377.12	109.485	159.333	159.333	159.333	159.333	159.333
1377.14	109.46	167.333	167.333	167.333	167.333	167.333
1377.17	109.435	162	162	162	162	162
1377.19	109.41	157	157	157	157	157
1377.22	109.385	163	163	163	163	163
1377.24	109.36	155	155	155	155	155
1377.27	109.335	158.667	158.667	158.667	158.667	158.667
1377.29	109.31	158.667	158.667	158.667	158.667	158.667
1377.32	109.285	165.667	165.667	165.667	165.667	165.667
1377.34	109.26	148	148	148	148	148
1377.37	109.235	161	161	161	161	161
1377.39	109.21	159	159	159	159	159
1377.42	109.185	148.667	148.667	148.667	148.667	148.667
1377.44	109.16	152	152	152	152	152
1377.47	109.135	162	162	162	162	162
1377.49	109.11	162.667	162.667	162.667	162.667	162.667
1377.52	109.085	150.667	150.667	150.667	150.667	150.667
1377.54	109.06	144.667	144.667	144.667	144.667	144.667
1377.57	109.035	151	151	151	151	151
1377.59	109.01	149.333	149.333	149.333	149.333	149.333
1377.62	108.985	140.667	140.667	140.667	140.667	140.667
1377.64	108.96	151.667	151.667	151.667	151.667	151.667
1377.67	108.935	154	154	154	154	154
1377.69	108.91	156	156	156	156	156
1377.72	108.885	174	174	174	174	174
1377.74	108.86	155	155	155	155	155
1377.77	108.835	152	152	152	152	152
1377.79	108.81	162	162	162	162	162
1377.82	108.785	162.667	162.667	162.667	162.667	162.667
1377.84	108.76	151	151	151	151	151
1377.87	108.735	150.667	150.667	150.667	150.667	150.667
1377.89	108.71	160.333	160.333	160.333	160.333	160.333
1377.92	108.685	142.667	142.667	142.667	142.667	142.667
1377.94	108.66	146.333	146.333	146.333	146.333	146.333
1377.97	108.635	141	141	141	141	141
1377.99	108.61	153	153	153	153	153
1378.02	108.585	148	148	148	148	148
1378.04	108.56	148.667	148.667	148.667	148.667	148.667
1378.07	108.535	144.333	144.333	144.333	144.333	144.333
1378.09	108.51	139.667	139.667	139.667	139.667	139.667
1378.12	108.485	151	151	151	151	151
1378.14	108.46	163	163	163	163	163
1378.17	108.435	150	150	150	150	150
1378.19	108.41	153.333	153.333	153.333	153.333	153.333
1378.22	108.385	155.333	155.333	155.333	155.333	155.333
1378.24	108.36	148	148	148	148	148
1378.27	108.335	150	150	150	150	150
1378.29	108.31	157.667	157.667	157.667	157.667	157.667
1378.32	108.285	154.333	154.333	154.333	154.333	154.333
1378.34	108.26	152	152	152	152	152
1378.37	108.235	144	144	144	144	144
1378.39	108.21	152.333	152.333	152.333	152.333	152.333
1378.42	108.185	157.667	157.667	157.667	157.667	157.667
1378.44	108.16	145.667	145.667	145.667	145.667	145.667
1378.47	108.135	135	135	135	135	135
1378.49	108.11	151.333	151.333	151.333	151.333	151.333
1378.52	108.085	149	149	149	149	149
1378.54	108.06	150.333	150.333	150.333	150.333	150.333
1378.57	108.035	160.333	160.333	160.333	160.333	160.333
1378.59	108.01	145.333	145.333	145.333	145.333	145.333
1378.62	107.985	145	145	145	145	145
1378.64	107.96	139	139	139	139	139
1378.67	107.935	148.333	148.333	148.333	148.333	148.333
1378.69	107.91	153.333	153.333	153.333	153.333	153.333
1378.72	107.885	156	156	156	156	156
1378.74	107.86	143.333	143.333	143.333	143.333	143.333
1378.77	107.835	149	149	149	149	149
1378.79	107.81	134.667	134.667	134.667	134.667	134.667
1378.82	107.785	133	133	133	133	133
1378.84	107.76	134.333	134.333	134.333	134.333	134.333
1378.87	107.735	133	133	133	133	133
1378.89	107.71	142.667	142.667	142.667	142.667	142.667
1378.92	107.685	132.667	132.667	132.667	132.667	132.667
1378.94	107.66	138.333	138.333	138.333	138.333	138.333
1378.97	107.635	141.333	141.333	141.333	141.333	141.333
1378.99	107.61	140	140	140	140	140
1379.02	107.585	142.333	142.333	142.333	142.333	142.333
1379.04	107.56	156.333	156.333	156.333	156.333	156.333
1379.07	107.535	159.667	159.667	159.667	159.667	159.667
1379.09	107.51	146	146	146	146	146
1379.12	107.485	132.333	132.333	132.333	132.333	132.333
1379.14	107.46	135.333	135.333	135.333	135.333	135.333
1379.17	107.435	136.333	136.333	136.333	136.333	136.333
1379.19	107.41	140.667	140.667	140.667	140.667	140.667
1379.22	107.385	136.333	136.333	136.333	136.333	136.333
1379.24	107.36	148.333	148.333	148.333	148.333	148.333
1379.27	107.335	142	142	142	142	142
1379.29	107.31	141	141	141	141	141
1379.32	107.285	134.333	134.333	134.333	134.333	134.333
1379.34	107.26	137.667	137.667	137.667	137.667	137.667
1379.37	107.235	145.333	145.333	145.333	145.333	145.333
1379.39	107.21	150	150	150	150	150
1379.42	107.185	137.333	137.333	137.333	137.333	137.333
1379.44	107.16	143.333	143.333	143.333	143.333	143.333
1379.47	107.135	140	140	140	140	140
1379.49	107.11	145	145	145	145	145
1379.52	107.085	132	132	132	132	132
1379.54	107.06	133.667	133.667	133.667	133.667	133.667
1379.57	107.035	139.667	139.667	139.667	139.667	139.667
1379.59	107.01	134.667	134.667	134.667	134.667	134.667
1379.62	106.985	126.667	126.667	126.667	126.667	126.667
1379.64	106.96	136	136	136	136	136
1379.67	106.935	135.667	135.667	135.667	135.667	135.667
1379.69	106.91	127	127	127	127	127
1379.72	106.885	130.333	130.333	130.333	130.333	130.333
1379.74	106.86	134	134	134	134	134
1379.77	106.835	129.333	129.333	129.333	129.333	129.333
1379.79	106.81	136	136	136	136	136
1379.82	106.785	132.667	132.667	132.667	132.667	132.667
1379.84	106.76	131	131	131	131	131
1379.87	106.735	139	139	139	139	139
1379.89	106.71	134.667	134.667	134.667	134.667	134.667
1379.92	106.685	126.667	126.667	126.667	126.667	126.667
1379.94	106.66	126	126	126	126	126
1379.97	106.635	123	123	123	123	123
1379.99	106.61	138.667	138.667	138.667	138.667	138.667
1380.02	106.585	137	137	137	137	137
1380.04	106.56	127	127	127	127	127
1380.07	106.535	135.333	135.333	135.333	135.333	135.333
1380.09	106.51	126.333	126.333	126.333	126.333	126.333
1380.12	106.485	125	125	125	125	125
1380.14	106.46	125.667	125.667	125.667	125.667	125.667
1380.17	106.435	121	121	121	121	121
1380.19	106.41	117.667	117.667	117.667	117.667	117.667
1380.22	106.385	127.333	127.333	127.333	127.333	127.333
1380.24	106.36	121.667	121.667	121.667	121.667	121.667
1380.27	106.335	124	124	124	124	124
1380.29	106.31	132	132	132	132	132
1380.32	106.285	130.333	130.333	130.333	130.333	130.333
1380.34	106.26	130	130	130	130	130
1380.37	106.235	123.667	123.667	123.667	123.667	123.667
1380.39	106.21	133.667	133.667	133.667	133.667	133.667
1380.42	106.185	113.667	113.667	113.667	113.667	113.667
1380.44	106.16	119.667	119.667	119.667	119.667	119.667
1380.47	106.135	131.667	131.667	131.667	131.667	131.667
1380.49	106.11	118.333	118.333	118.333	118.333	118.333
1380.52	106.085	119	119	119	119	119
1380.54	106.06	139	139	139	139	139
1380.57	106.035	126	126	126	126	126
1380.59	106.01	128	128	128	128	128
1380.62	105.985	125	125	125	125	125
1380.64	105.96	116.667	116.667	116.667	116.667	116.667
1380.67	105.935	124.333	124.333	124.333	124.333	124.333
1380.69	105.91	116	116	116	116	116
1380.72	105.885	128	128	128	128	128
1380.74	105.86	131	131	131	131	131
1380.77	105.835	122	122	122	122	122
1380.79	105.81	126.333	126.333	126.333	126.333	126.333
1380.82	105.785	122	122	122	122	122
1380.84	105.76	120.667	120.667	120.667	120.667	120.667
1380.87	105.735	122	122	122	122	122
1380.89	105.71	113	113	113	113	113
1380.92	105.685	104	104	104	104	104
1380.94	105.66	116	116	116	116	116
1380.97	105.635	115.333	115.333	115.333	115.333	115.333
1380.99	105.61	122	122	122	122	122
1381.02	105.585	118.333	118.333	118.333	118.333	118.333
1381.04	105.56	118	118	118	118	118
1381.07	105.535	115.333	115.333	115.333	115.333	115.333
1381.09	105.51	125.333	125.333	125.333	125.333	125.333
1381.12	105.485	122	122	122	122	122
1381.14	105.46	120.667	120.667	120.667	120.667	120.667
1381.17	105.435	118.333	118.333	118.333	118.333	118.333
1381.19	105.41	112.333	112.333	112.333	112.333	112.333
1381.22	105.385	109.667	109.667	109.667	109.667	109.667
1381.24	105.36	119.333	119.333	119.333	119.333	119.333
1381.27	105.335	116.667	116.667	116.667	116.667	116.667
1381.29	105.31	124.333	124.333	124.333	124.333	124.333
1381.32	105.285	126.333	126.333	126.333	126.333	126.333
1381.34	105.26	115.667	115.667	115.667	115.667	115.667
1381.37	105.235	110.667	110.667	110.667	110.667	110.667
1381.39	105.21	115	115	115	115	115
1381.42	105.185	119	119	119	119	119
1381.44	105.16	113	113	113	113	113
1381.47	105.135	109	109	109	109	109
1381.49	105.11	115.667	115.667	115.667	115.667	115.667
1381.52	105.085	111	111	111	111	111
1381.54	105.06	122.667	122.667	122.667	122.667	122.667
1381.57	105.035	107	107	107	107	107
1381.59	105.01	113	113	113	113	113
1381.62	104.985	126.333	126.333	126.333	126.333	126.333
1381.64	104.96	122.333	122.333	122.333	122.333	122.333
1381.67	104.935	114.667	114.667	114.667	114.667	114.667
1381.69	104.91	122.667	122.667	122.667	122.667	122.667
1381.72	104.885	111.333	111.333	111.333	111.333	111.333
1381.74	104.86	102.333	102.333	102.333	102.333	102.333
1381.77	104.835	106	106	106	106	106
1381.79	104.81	114.667	114.667	114.667	114.667	114.667
1381.82	104.785	107.667	107.667	107.667	107.667	107.667
1381.84	104.76	117.333	117.333	117.333	117.333	117.333
1381.87	104.735	112	112	112	112	112
1381.89	104.71	119	119	119	119	119
1381.92	104.685	114.667	114.667	114.667	114.667	114.667
1381.94	104.66	107.333	107.333	107.333	107.333	107.333
1381.97	104.635	111.333	111.333	111.333	111.333	111.333
1381.99	104.61	116	116	116	116	116
1382.02	104.585	111.333	111.333	111.333	111.333	111.333
1382.04	104.56	120.667	120.667	120.667	120.667	120.667
1382.07	104.535	119	119	119	119	119
1382.09	104.51	110.333	110.333	110.333	110.333	110.333
1382.12	104.485	115.667	115.667	115.667	115.667	115.667
1382.14	104.46	119	119	119	119	119
1382.17	104.435	125	125	125	125	125
1382.19	104.41	130	130	130	130	130
1382.22	104.385	127.667	127.667	127.667	127.667	127.667
1382.24	104.36	127	127	127	127	127
1382.27	104.335	122	122	122	122	122
1382.29	104.31	115.667	115.667	115.667	115.667	115.667
1382.32	104.285	114.667	114.667	114.667	114.667	114.667
1382.34	104.26	117.333	117.333	117.333	117.333	117.333
1382.37	104.235	130	130	130	130	130
1382.39	104.21	128.333	128.333	128.333	128.333	128.333
1382.42	104.185	114	114	114	114	114
1382.44	104.16	116.667	116.667	116.667	116.667	116.667
1382.47	104.135	125.667	125.667	125.667	125.667	125.667
1382.49	104.11	124	124	124	124	124
1382.52	104.085	126.333	126.333	126.333	126.333	126.333
1382.54	104.06	130	130	130	130	130
1382.57	104.035	132.667	132.667	132.667	132.667	132.667
1382.59	104.01	128.333	128.333	128.333	128.333	128.333
1382.62	103.985	117.333	117.333	117.333	117.333	117.333
1382.64	103.96	124.667	124.667	124.667	124.667	124.667
1382.67	103.935	118.333	118.333	118.333	118.333	118.333
1382.69	103.91	123	123	123	123	123
1382.72	103.885	112	112	112	112	112
1382.74	103.86	124.333	124.333	124.333	124.333	124.333
1382.77	103.835	123.667	123.667	123.667	123.667	123.667
1382.79	103.81	125.333	125.333	125.333	125.333	125.333
1382.82	103.785	122.667	122.667	122.667	122.667	122.667
1382.84	103.76	119.333	119.333	119.333	119.333	119.333
1382.87	103.735	122	122	122	122	122
1382.89	103.71	114.667	114.667	114.667	114.667	114.667
1382.92	103.685	119.333	119.333	119.333	119.333	119.333
1382.94	103.66	125.667	125.667	125.667	125.667	125.667
1382.97	103.635	121.667	121.667	121.667	121.667	121.667
1382.99	103.61	116.333	116.333	116.333	116.333	116.333
1383.02	103.585	121.667	121.667	121.667	121.667	121.667
1383.04	103.56	121.333	121.333	121.333	121.333	121.333
1383.07	103.535	108.333	108.333	108.333	108.333	108.333
1383.09	103.51	109.333	109.333	109.333	109.333	109.333
1383.12	103.485	116	116	116	116	116
1383.14	103.46	114	114	114	114	114
1383.17	103.435	118	118	118	118	118
1383.19	103.41	116.333	116.333	116.333	116.333	116.333
1383.22	103.385	122.333	122.333	122.333	122.333	122.333
1383.24	103.36	112	112	112	112	112
1383.27	103.335	119	119	119	119	119
1383.29	103.31	121	121	121	121	121
1383.32	103.285	122	122	122	122	122
1383.34	103.26	110.333	110.333	110.333	110.333	110.333
1383.37	103.235	113.333	113.333	113.333	113.333	113.333
1383.39	103.21	108.667	108.667	108.667	108.667	108.667
1383.42	103.185	102.333	102.333	102.333	102.333	102.333
1383.44	103.16	119.333	119.333	119.333	119.333	119.333
1383.47	103.135	109	109	109	109	109
1383.49	103.11	106.667	106.667	106.667	106.667	106.667
1383.52	103.085	105.667	105.667	105.667	105.667	105.667
1383.54	103.06	99.6667	99.6667	99.6667	99.6667	99.6667
1383.57	103.035	110.333	110.333	110.333	110.333	110.333
1383.59	103.01	118	118	118	118	118
1383.62	102.985	101.333	101.333	101.333	101.333	101.333
1383.64	102.96	111.667	111.667	111.667	111.667	111.667
1383.67	102.935	97.6667	97.6667	97.6667	97.6667	97.6667
1383.69	102.91	103.333	103.333	103.333	103.333	103.333
1383.72	102.885	95	95	95	95	95
1383.74	102.86	105.667	105.667	105.667	105.667	105.667
1383.77	102.835	94.6667	94.6667	94.6667	94.6667	94.6667
1383.79	102.81	98	98	98	98	98
1383.82	102.785	91.3333	91.3333	91.3333	91.3333	91.3333
1383.84	102.76	96.6667	96.6667	96.6667	96.6667	96.6667
1383.87	102.735	95	95	95	95	95
1383.89	102.71	90.3333	90.3333	90.3333	90.3333	90.3333
1383.92	102.685	87.6667	87.6667	87.6667	87.6667	87.6667
1383.94	102.66	95.3333	95.3333	95.3333	95.3333	95.3333
1383.97	102.635	82.6667	82.6667	82.6667	82.6667	82.6667
1383.99	102.61	88.6667	88.6667	88.6667	88.6667	88.6667
1384.02	102.585	81	81	81	81	81
1384.04	102.56	82.3333	82.3333	82.3333	82.3333	82.3333
1384.07	102.535	82.3333	82.3333	82.3333	82.3333	82.3333
1384.09	102.51	84.6667	84.6667	84.6667	84.6667	84.6667
1384.12	102.485	85	85	85	85	85
1384.14	102.46	91	91	91	91	91
1384.17	102.435	71.3333	71.3333	71.3333	71.3333	71.3333
1384.19	102.41	78.3333	78.3333	78.3333	78.3333	78.3333
1384.22	102.385	82	82	82	82	82
1384.24	102.36	76.6667	76.6667	76.6667	76.6667	76.6667
1384.27	102.335	79	79	79	79	79
1384.29	102.31	78.6667	78.6667	78.6667	78.6667	78.6667
1384.32	102.285	76	76	76	76	76
1384.34	102.26	67	67	67	67	67
1384.37	102.235	78	78	78	78	78
1384.39	102.21	78.3333	78.3333	78.3333	78.3333	78.3333
1384.42	102.185	82.3333	82.3333	82.3333	82.3333	82.3333
1384.44	102.16	76.6667	76.6667	76.6667	76.6667	76.6667
1384.47	102.135	65	65	65	65	65
1384.49	102.11	74.3333	74.3333	74.3333	74.3333	74.3333
1384.52	102.085	83	83	83	83	83
1384.54	102.06	66.6667	66.6667	66.6667	66.6667	66.6667
1384.57	102.035	67.3333	67.3333	67.3333	67.3333	67.3333
1384.59	102.01	67	67	67	67	67
1384.62	101.985	69.6667	69.6667	69.6667	69.6667	69.6667
1384.64	101.96	78.6667	78.6667	78.6667	78.6667	78.6667
1384.67	101.935	77.3333	77.3333	77.3333	77.3333	77.3333
1384.69	101.91	75.6667	75.6667	75.6667	75.6667	75.6667
1384.72	101.885	78	72.6648	72.6648	72.6648	72.6648
1384.74	101.86	64.3333	72.6619	72.6619	72.6619	72.6619
1384.77	101.835	73.3333	72.6617	72.6617	72.6617	72.6617
1384.79	101.81	73.3333	72.6614	72.6614	72.6614	72.6614
1384.82	101.785	76.3333	72.6601	72.6601	72.6601	72.6601
1384.84	101.76	74	72.6597	72.6597	72.6597	72.6597
1384.87	101.735	72	72.6594	72.6594	72.6594	72.6594
1384.89	101.71	69.6667	72.6584	72.6584	72.6584	72.6584
1384.92	101.685	70.3333	72.6576	72.6576	72.6576	72.6576
1384.94	101.66	68.6667	72.6562	72.6562	72.6562	72.6562
1384.97	101.635	74.6667	72.6555	72.6555	72.6555	72.6555
1384.99	101.61	69.6667	72.6544	72.6544	72.6544	72.6544
1385.02	101.585	76	72.6533	72.6533	72.6533	72.6533
1385.04	101.56	72.6667	72.6533	72.6533	72.6533	72.6533
1385.07	101.535	70.6667	72.6526	72.6526	72.6526	72.6526
1385.09	101.51	71	72.652	72.652	72.652	72.652
1385.12	101.485	67.6667	72.6503	72.6503	72.6503	72.6503
1385.14	101.46	77.3333	72.6486	72.6486	72.6486	72.6486
1385.17	101.435	76.3333	72.6473	72.6473	72.6473	72.6473
1385.19	101.41	73	72.6472	72.6472	72.6472	72.6472
1385.22	101.385	79.3333	72.6449	72.6449	72.6449	72.6449
1385.24	101.36	88	72.6395	72.6395	72.6395	72.6395
1385.27	101.335	80.6667	72.6367	72.6367	72.6367	72.6367
1385.29	101.31	78.6667	72.6346	72.6346	72.6346	72.6346
1385.32	101.285	87.3333	72.6294	72.6294	72.6294	72.6294
1385.34	101.26	72.3333	72.6293	72.6293	72.6293	72.6293
1385.37	101.235	84.3333	72.6253	72.6252	72.6252	72.6253
1385.39	101.21	91	72.6188	72.6188	72.6188	72.6188
1385.42	101.185	97.3333	72.6102	72.6102	72.6102	72.6102
1385.44	101.16	91	72.6038	72.6038	72.6038	72.6038
1385.47	101.135	99.3333	72.5945	72.5944	72.5944	72.5945
1385.49	101.11	92.3333	72.5877	72.5875	72.5875	72.5877
1385.52	101.085	86.6667	72.583	72.5826	72.5826	72.583
1385.54	101.06	109.667	72.5704	72.5696	72.5696	72.5704
1385.57	101.035	100	72.5616	72.56	72.56	72.5616
1385.59	101.01	104	72.5521	72.549	72.549	72.5521
1385.62	100.985	110	72.5417	72.5359	72.5359	72.5417
1385.64	100.96	124	72.5286	72.5179	72.5179	72.5286
1385.67	100.935	135.333	72.5153	72.496	72.496	72.5153
1385.69	100.91	131.333	72.5103	72.4754	72.4754	72.5103
1385.72	100.885	142.333	72.5126	72.451	72.451	72.5126
1385.74	100.86	144.667	72.5338	72.4257	72.4257	72.5338
1385.77	100.835	142.333	72.587	72.4013	72.4013	72.587
1385.79	100.81	156	72.6886	72.3721	72.3721	72.6886
1385.82	100.785	161.667	72.87	72.3408	72.3408	72.87
1385.84	100.76	169	73.1837	72.307	72.307	73.1837
1385.87	100.735	164	73.7002	72.275	72.275	73.7002
1385.89	100.71	186	74.5304	72.2352	72.2352	74.5304
1385.92	100.685	198.667	75.8203	72.191	72.191	75.8203
1385.94	100.66	208.333	77.8251	72.1434	72.1434	77.8251
1385.97	100.635	226.333	80.8281	72.0895	72.0895	80.8281
1385.99	100.61	250	85.3268	72.0273	72.0273	85.3268
1386.02	100.585	270.333	91.8529	71.958	71.958	91.8529
1386.04	100.56	280	101.319	71.8853	71.8852	101.319
1386.07	100.535	305.333	114.622	71.8038	71.8036	114.622
1386.09	100.51	344	133.277	71.7088	71.7084	133.278
1386.12	100.485	361.667	158.682	71.6077	71.6071	158.683
1386.14	100.46	397.667	193.137	71.4943	71.4931	193.138
1386.17	100.435	453.667	238.521	71.3619	71.3594	238.524
1386.19	100.41	486	297.946	71.2192	71.2145	297.95
1386.22	100.385	575.333	373.522	71.0471	71.0382	373.531
1386.24	100.36	664.667	468.75	70.8473	70.8307	468.766
1386.27	100.335	711	585.308	70.6373	70.6068	585.338
1386.29	100.31	837.333	725.995	70.394	70.3388	726.051
1386.32	100.285	991	890.693	70.115	70.0169	890.791
1386.34	100.26	1163.33	1079.7	69.8078	69.6346	1079.87
1386.37	100.235	1358.67	1289.42	69.4832	69.1839	1289.71
1386.39	100.21	1573	1515.41	69.1711	68.6582	1515.92
1386.42	100.185	1761.67	1749.43	68.9285	68.0662	1750.29
1386.44	100.16	1978	1981.07	68.8351	67.3985	1982.51
1386.47	100.135	2241	2198.25	68.9871	66.6385	2200.6
1386.49	100.11	2443	2386.43	69.6113	65.8077	2390.24
1386.52	100.085	2652.33	2533.88	70.9513	64.9034	2539.93
1386.54	100.06	2780	2627.39	73.4758	63.9541	2636.92
1386.57	100.035	2882.33	2661.71	77.6949	62.9687	2676.44
1386.59	100.01	2987.33	2631.42	84.4855	61.9463	2653.96
1386.62	99.985	2952.33	2541.48	94.8405	60.9357	2575.38
1386.64	99.96	2831.33	2396.8	110.413	59.9671	2447.24
1386.67	99.935	2696.67	2210.27	132.843	59.0453	2284.07
1386.69	99.91	2494.33	1993.62	164.917	58.1938	2100.35
1386.72	99.885	2246.67	1761.37	209.223	57.4287	1913.16
1386.74	99.86	2023.33	1525.81	270.035	56.7413	1739.11
1386.77	99.835	1858.67	1297.47	350.925	56.1113	1592.29
1386.79	99.81	1713.33	1084.93	457.8	55.5319	1487.2
1386.82	99.785	1599	892.807	594.897	54.9923	1432.71
1386.84	99.76	1582.33	724.915	769.14	54.4583	1439.6
1386.87	99.735	1597	581.069	984.205	53.919	1511.35
1386.89	99.71	1668.33	461.527	1246.24	53.3545	1654.42
1386.92	99.685	1868.33	363.46	1555.96	52.72	1866.7
1386.94	99.66	2117	285.258	1915.32	51.9982	2148.58
1386.97	99.635	2379	223.406	2318.79	51.1846	2491.01
1386.99	99.61	2757.33	175.74	2759.68	50.2385	2885.19
1387.02	99.585	3131.33	139.123	3223.39	49.1613	3313.35
1387.04	99.56	3586.33	111.622	3691.45	47.9246	3755.14
1387.07	99.535	3962.67	90.9148	4140.82	46.5559	4185.18
1387.09	99.51	4351.33	75.5848	4543.38	45.0508	4573.92
1387.12	99.485	4743	64.0748	4874.59	43.4083	4895.25
1387.14	99.46	5013.67	55.5044	5106.36	41.6706	5120.2
1387.17	99.435	5199.33	48.9692	5224.72	39.8673	5233.83
1387.19	99.41	5158	44.0037	5215.02	38.0779	5220.94
1387.22	99.385	5056	40.1138	5082.95	36.3235	5086.74
1387.24	99.36	4852.33	37.0399	4834.44	34.6397	4836.84
1387.27	99.335	4513	34.5664	4492.99	33.0739	4494.48
1387.29	99.31	4079	32.5786	4080.27	31.6594	4081.19
1387.32	99.285	3538	30.9891	3625.76	30.4335	3626.32
1387.34	99.26	3012	29.7239	3154.75	29.391	3155.08
1387.37	99.235	2480.33	28.7297	2690.43	28.5341	2690.63
1387.39	99.21	2022.33	27.951	2251.84	27.837	2251.96
1387.42	99.185	1573.67	27.3616	1850.54	27.2966	1850.6
1387.44	99.16	1217.67	26.9172	1496	26.8804	1496.04
1387.47	99.135	952	26.5774	1189.43	26.5569	1189.45
1387.49	99.11	747	26.3163	932.512	26.3051	932.523
1387.52	99.085	554.667	26.1264	720.374	26.1203	720.38
1387.54	99.06	445	25.9771	550.299	25.9739	550.302
1387.57	99.035	344	25.8644	415.324	25.8627	415.325
1387.59	99.01	282	25.774	311.247	25.7731	311.248
1387.62	98.985	223	25.7046	231.536	25.7042	231.537
1387.64	98.96	179	25.6508	172.224	25.6506	172.224
1387.67	98.935	164.333	25.6022	128.263	25.6021	128.264
1387.69	98.91	137.667	25.563	96.6267	25.5629	96.6268
1387.72	98.885	143.333	25.5218	73.8942	25.5217	73.8943
1387.74	98.86	110	25.4922	58.0527	25.4922	58.0527
1387.77	98.835	104.333	25.4646	47.0092	25.4646	47.0092
1387.79	98.81	100.333	25.4385	39.543	25.4385	39.543
1387.82	98.785	95.6667	25.4139	34.4867	25.4139	34.4867
1387.84	98.76	91.3333	25.3909	31.1681	25.3909	31.1681
1387.87	98.735	87.3333	25.3692	28.9819	25.3692	28.9819
1387.89	98.71	66	25.355	27.5925	25.355	27.5925
1387.92	98.685	61.3333	25.3424	26.7026	25.3424	26.7026
1387.94	98.66	64.3333	25.3288	26.1481	25.3288	26.1481
1387.97	98.635	66.6667	25.3143	25.7984	25.3143	25.7984
1387.99	98.61	59	25.3026	25.5862	25.3026	25.5862
1388.02	98.585	70.3333	25.2868	25.4497	25.2868	25.4497
1388.04	98.56	54	25.2768	25.3696	25.2768	25.3696
1388.07	98.535	50.6667	25.2679	25.3197	25.2679	25.3197
1388.09	98.51	53	25.2582	25.2869	25.2582	25.2869
1388.12	98.485	50.6667	25.2493	25.2649	25.2493	25.2649
1388.14	98.46	42	25.2435	25.2518	25.2435	25.2518
1388.17	98.435	44	25.2369	25.2413	25.2369	25.2413
1388.19	98.41	44.3333	25.2302	25.2325	25.2302	25.2325
1388.22	98.385	46	25.223	25.2241	25.223	25.2241
1388.24	98.36	38.6667	25.2183	25.2189	25.2183	25.2189
1388.27	98.335	51	25.2093	25.2096	25.2093	25.2096
1388.29	98.31	41	25.2037	25.2039	25.2037	25.2039
1388.32	98.285	34.6667	25.2004	25.2005	25.2004	25.2005
1388.34	98.26	37	25.1963	25.1963	25.1963	25.1963
1388.37	98.235	38	25.1918	25.1918	25.1918	25.1918
1388.39	98.21	38.3333	25.1872	25.1872	25.1872	25.1872
1388.42	98.185	38.6667	25.1825	25.1825	25.1825	25.1825
1388.44	98.16	35	25.1791	25.1791	25.1791	25.1791
1388.47	98.135	36	25.1753	25.1753	25.1753	25.1753
1388.49	98.11	35.6667	25.1716	25.1716	25.1716	25.1716
1388.52	98.085	36.3333	25.1677	25.1677	25.1677	25.1677
1388.54	98.06	39.3333	25.1628	25.1628	25.1628	25.1628
1388.57	98.035	31.6667	25.1605	25.1605	25.1605	25.1605
1388.59	98.01	35	25.1571	25.1571	25.1571	25.1571
1388.62	97.985	36	25.1533	25.1533	25.1533	25.1533
1388.64	97.96	27.6667	25.1524	25.1524	25.1524	25.1524
1388.67	97.935	36	25.1486	25.1486	25.1486	25.1486
1388.69	97.91	38.3333	25.144	25.144	25.144	25.144
1388.72	97.885	34.3333	25.1408	25.1408	25.1408	25.1408
1388.74	97.86	32	25.1384	25.1384	25.1384	25.1384
1388.77	97.835	32.3333	25.1359	25.1359	25.1359	25.1359
1388.79	97.81	23.6667	25.1354	25.1354	25.1354	25.1354
1388.82	97.785	25	25.1353	25.1353	25.1353	25.1353
1388.84	97.76	30.3333	25.1335	25.1335	25.1335	25.1335
1388.87	97.735	27.3333	25.1327	25.1327	25.1327	25.1327
1388.89	97.71	25.3333	25.1326	25.1326	25.1326	25.1326
1388.92	97.685	20.3333	25.131	25.131	25.131	25.131
1388.94	97.66	31.3333	25.1288	25.1288	25.1288	25.1288
1388.97	97.635	28.3333	25.1277	25.1277	25.1277	25.1277
1388.99	97.61	26.3333	25.1273	25.1273	25.1273	25.1273
1389.02	97.585	27.3333	25.1265	25.1265	25.1265	25.1265
1389.04	97.56	29	25.1251	25.1251	25.1251	25.1251
1389.07	97.535	20.6667	25.1236	25.1236	25.1236	25.1236
1389.09	97.51	24.3333	25.1233	25.1233	25.1233	25.1233
1389.12	97.485	23	25.1226	25.1226	25.1226	25.1226
1389.14	97.46	29.6667	25.121	25.121	25.121	25.121
1389.17	97.435	28.3333	25.1198	25.1198	25.1198	25.1198
1389.19	97.41	30.3333	25.118	25.118	25.118	25.118
1389.22	97.385	24.6667	25.1179	25.1179	25.1179	25.1179
1389.24	97.36	29	25.1165	25.1165	25.1165	25.1165
1389.27	97.335	33.6667	25.1135	25.1135	25.1135	25.1135
1389.29	97.31	28.3333	25.1124	25.1124	25.1124	25.1124
1389.32	97.285	23	25.1117	25.1117	25.1117	25.1117
1389.34	97.26	25	25.1116	25.1116	25.1116	25.1116
1389.37	97.235	23.6667	25.1111	25.1111	25.1111	25.1111
1389.39	97.21	26.6667	26.6667	26.6667	26.6667	26.6667
1389.42	97.185	21	21	21	21	21
1389.44	97.16	29.6667	29.6667	29.6667	29.6667	29.6667
1389.47	97.135	22.6667	22.6667	22.6667	22.6667	22.6667
1389.49	97.11	27.6667	27.6667	27.6667	27.6667	27.6667
1389.52	97.085	21.6667	21.6667	21.6667	21.6667	21.6667
1389.54	97.06	24	24	24	24	24
1389.57	97.035	30.6667	30.6667	30.6667	30.6667	30.6667
1389.59	97.01	30.3333	30.3333	30.3333	30.3333	30.3333
1389.62	96.985	26	26	26	26	26
1389.64	96.96	23	23	23	23	23
1389.67	96.935	22.6667	22.6667	22.6667	22.6667	22.6667
1389.69	96.91	24.3333	24.3333	24.3333	24.3333	24.3333
1389.72	96.885	22	22	22	22	22
1389.74	96.86	27	27	27	27	27
1389.77	96.835	24.6667	24.6667	24.6667	24.6667	24.6667
1389.79	96.81	20.6667	20.6667	20.6667	20.6667	20.6667
1389.82	96.785	26.6667	26.6667	26.6667	26.6667	26.6667
1389.84	96.76	26	26	26	26	26
1389.87	96.735	26	26	26	26	26
1389.89	96.71	18.6667	18.6667	18.6667	18.6667	18.6667
1389.92	96.685	20	20	20	20	20
1389.94	96.66	25.6667	25.6667	25.6667	25.6667	25.6667
1389.97	96.635	22.3333	22.3333	22.3333	22.3333	22.3333
1389.99	96.61	22.6667	22.6667	22.6667	22.6667	22.6667
1390.02	96.585	29.6667	29.6667	29.6667	29.6667	29.6667
1390.04	96.56	27.6667	27.6667	27.6667	27.6667	27.6667
1390.07	96.535	25	25	25	25	25
1390.09	96.51	24.3333	24.3333	24.3333	24.3333	24.3333
1390.12	96.485	26.6667	26.6667	26.6667	26.6667	26.6667
1390.14	96.46	27.3333	27.3333	27.3333	27.3333	27.3333
1390.17	96.435	19.6667	19.6667	19.6667	19.6667	19.6667
1390.19	96.41	21.6667	21.6667	21.6667	21.6667	21.6667
1390.22	96.385	29	29	29	29	29
1390.24	96.36	23.3333	23.3333	23.3333	23.3333	23.3333
1390.27	96.335	23	23	23	23	23
1390.29	96.31	25.3333	25.3333	25.3333	25.3333	25.3333
1390.32	96.285	27.3333	27.3333	27.3333	27.3333	27.3333
1390.34	96.26	23	23	23	23	23
1390.37	96.235	24	24	24	24	24
1390.39	96.21	21	21	21	21	21
1390.42	96.185	20.6667	20.6667	20.6667	20.6667	20.6667
1390.44	96.16	23.6667	23.6667	23.6667	23.6667	23.6667
1390.47	96.135	21.3333	21.3333	21.3333	21.3333	21.3333
1390.49	96.11	25	25	25	25	25
1390.52	96.085	28.6667	28.6667	28.6667	28.6667	28.6667
1390.54	96.06	29.3333	29.3333	29.3333	29.3333	29.3333
1390.57	96.035	20.6667	20.6667	20.6667	20.6667	20.6667
1390.59	96.01	23	23	23	23	23
1390.62	95.985	21	21	21	21	21
1390.64	95.96	20.3333	20.3333	20.3333	20.3333	20.3333
1390.67	95.935	18.6667	18.6667	18.6667	18.6667	18.6667
1390.69	95.91	23	23	23	23	23
1390.72	95.885	21.3333	21.3333	21.3333	21.3333	21.3333
1390.74	95.86	22.6667	22.6667	22.6667	22.6667	22.6667
1390.77	95.835	25.6667	25.6667	25.6667	25.6667	25.6667
1390.79	95.81	22.6667	22.6667	22.6667	22.6667	22.6667
1390.82	95.785	21.3333	21.3333	21.3333	21.3333	21.3333
1390.84	95.76	21.3333	21.3333	21.3333	21.3333	21.3333
1390.87	95.735	19	19	19	19	19
1390.89	95.71	22.6667	22.6667	22.6667	22.6667	22.6667
1390.92	95.685	20	20	20	20	20
1390.94	95.66	22.3333	22.3333	22.3333	22.3333	22.3333
1390.97	95.635	20.3333	20.3333	20.3333	20.3333	20.3333
1390.99	95.61	25.6667	25.6667	25.6667	25.6667	25.6667
1391.02	95.585	20	20	20	20	20
1391.04	95.56	26.6667	26.6667	26.6667	26.6667	26.6667
1391.07	95.535	23	23	23	23	23
1391.09	95.51	23.3333	23.3333	23.3333	23.3333	23.3333
1391.12	95.485	22.3333	22.3333	22.3333	22.3333	22.3333
1391.14	95.46	23	23	23	23	23
1391.17	95.435	24.3333	24.3333	24.3333	24.3333	24.3333
1391.19	95.41	23.3333	23.3333	23.3333	23.3333	23.3333
1391.22	95.385	23.6667	23.6667	23.6667	23.6667	23.6667
1391.24	95.36	20.3333	20.3333	20.3333	20.3333	20.3333
1391.27	95.335	27	27	27	27	27
1391.29	95.31	21.3333	21.3333	21.3333	21.3333	21.3333
1391.32	95.285	24	24	24	24	24
1391.34	95.26	22.6667	22.6667	22.6667	22.6667	22.6667
1391.37	95.235	25	25	25	25	25
1391.39	95.21	25.6667	25.6667	25.6667	25.6667	25.6667
1391.42	95.185	19.6667	19.6667	19.6667	19.6667	19.6667
1391.44	95.16	21	21	21	21	21
1391.47	95.135	20.6667	20.6667	20.6667	20.6667	20.6667
1391.49	95.11	29.6667	29.6667	29.6667	29.6667	29.6667
1391.52	95.085	26.6667	26.6667	26.6667	26.6667	26.6667
1391.54	95.06	19.3333	19.3333	19.3333	19.3333	19.3333
1391.57	95.035	22.6667	22.6667	22.6667	22.6667	22.6667
1391.59	95.01	21	21	21	21	21
1391.62	94.985	26	26	26	26	26
1391.64	94.96	22	22	22	22	22
1391.67	94.935	22.3333	22.3333	22.3333	22.3333	22.3333
1391.69	94.91	22.3333	22.3333	22.3333	22.3333	22.3333
1391.72	94.885	32.6667	32.6667	32.6667	32.6667	32.6667
1391.74	94.86	24	24	24	24	24
1391.77	94.835	28.6667	28.6667	28.6667	28.6667	28.6667
1391.79	94.81	21.3333	21.3333	21.3333	21.3333	21.3333